# t (ps)	N	NTwiddle
# kappa =    0.150 kJ/mol
# NStar =  -14.000
# mu =    0.000 kJ/mol
0.000000	283.000000	283.468140
0.100000	259.000000	259.585480
0.200000	252.000000	252.476166
0.300000	245.000000	245.440918
0.400000	241.000000	241.227539
0.500000	237.000000	236.690445
0.600000	232.000000	231.907761
0.700000	227.000000	227.740356
0.800000	224.000000	224.245422
0.900000	221.000000	221.355469
1.000000	219.000000	219.301865
1.100000	215.000000	215.405090
1.200000	211.000000	211.260498
1.300000	204.000000	204.199707
1.400000	199.000000	199.453613
1.500000	197.000000	197.444580
1.600000	196.000000	196.502411
1.700000	192.000000	192.560760
1.800000	189.000000	189.821701
1.900000	187.000000	187.079941
2.000000	186.000000	186.336304
2.100000	186.000000	186.603210
2.200000	185.000000	186.003265
2.300000	184.000000	184.834381
2.400000	182.000000	182.514160
2.500000	182.000000	182.331879
2.600000	179.000000	179.012482
2.700000	178.000000	178.173096
2.800000	175.000000	175.177856
2.900000	173.000000	173.551361
3.000000	171.000000	171.547455
3.100000	169.000000	169.185181
3.200000	166.000000	166.536713
3.300000	162.000000	162.378326
3.400000	156.000000	156.929047
3.500000	155.000000	155.135559
3.600000	153.000000	153.424347
3.700000	153.000000	153.391327
3.800000	150.000000	150.554977
3.900000	148.000000	149.032379
4.000000	146.000000	146.620483
4.100000	144.000000	143.728729
4.200000	142.000000	142.640472
4.300000	140.000000	140.932022
4.400000	140.000000	141.081055
4.500000	138.000000	138.723251
4.600000	137.000000	137.383392
4.700000	135.000000	135.013214
4.800000	132.000000	131.984222
4.900000	130.000000	130.246429
5.000000	130.000000	130.152039
5.100000	125.000000	125.671196
5.200000	123.000000	123.508804
5.300000	121.000000	121.446060
5.400000	117.000000	117.704651
5.500000	114.000000	114.627319
5.600000	111.000000	111.796547
5.700000	105.000000	105.330536
5.800000	104.000000	104.442825
5.900000	97.000000	97.571983
6.000000	94.000000	94.550323
6.100000	92.000000	92.059921
6.200000	88.000000	88.407356
6.300000	81.000000	83.477219
6.400000	79.000000	80.149490
6.500000	76.000000	75.597275
6.600000	73.000000	73.325401
6.700000	70.000000	70.686066
6.800000	67.000000	67.240463
6.900000	67.000000	67.152016
7.000000	63.000000	63.358105
7.100000	63.000000	63.579872
7.200000	61.000000	62.381783
7.300000	57.000000	56.368202
7.400000	50.000000	50.711391
7.500000	45.000000	45.584026
7.600000	44.000000	43.987778
7.700000	41.000000	41.391663
7.800000	42.000000	42.719028
7.900000	40.000000	41.187656
8.000000	39.000000	39.252769
8.100000	37.000000	38.628555
8.200000	35.000000	36.069008
8.300000	33.000000	34.132027
8.400000	34.000000	34.599632
8.500000	30.000000	30.818443
8.600000	29.000000	30.989746
8.700000	30.000000	31.050392
8.800000	28.000000	28.433632
8.900000	30.000000	29.731106
9.000000	26.000000	26.826395
9.100000	27.000000	27.364090
9.200000	25.000000	25.763794
9.300000	24.000000	24.770462
9.400000	24.000000	24.401722
9.500000	21.000000	22.562519
9.600000	15.000000	16.528055
9.700000	18.000000	19.023319
9.800000	19.000000	20.978607
9.900000	17.000000	18.292065
10.000000	15.000000	16.613817
10.100000	16.000000	16.970093
10.200000	17.000000	17.568817
10.300000	18.000000	18.594334
10.400000	18.000000	18.186914
10.500000	19.000000	20.175859
10.600000	17.000000	18.085245
10.700000	19.000000	18.968296
10.800000	13.000000	14.314993
10.900000	12.000000	13.430836
11.000000	16.000000	15.439103
11.100000	15.000000	15.777216
11.200000	13.000000	15.519734
11.300000	16.000000	16.256466
11.400000	15.000000	15.141914
11.500000	17.000000	18.521498
11.600000	18.000000	19.155415
11.700000	25.000000	25.765581
11.800000	18.000000	18.727100
11.900000	14.000000	15.274992
12.000000	15.000000	15.439773
12.100000	13.000000	12.896976
12.200000	12.000000	12.352864
12.300000	11.000000	11.072419
12.400000	12.000000	12.125399
12.500000	15.000000	15.625961
12.600000	12.000000	12.768940
12.700000	13.000000	13.656786
12.800000	14.000000	14.160458
12.900000	15.000000	14.895367
13.000000	15.000000	14.668696
13.100000	14.000000	15.281211
13.200000	14.000000	13.751078
13.300000	13.000000	13.289496
13.400000	12.000000	12.487532
13.500000	9.000000	10.424932
13.600000	9.000000	10.549711
13.700000	10.000000	11.505541
13.800000	14.000000	14.918571
13.900000	12.000000	13.352255
14.000000	12.000000	12.730417
14.100000	14.000000	16.012663
14.200000	14.000000	15.854496
14.300000	16.000000	17.318775
14.400000	15.000000	15.135359
14.500000	17.000000	17.456511
14.600000	19.000000	19.278366
14.700000	19.000000	19.788977
14.800000	20.000000	19.158646
14.900000	18.000000	18.167013
15.000000	13.000000	14.508007
15.100000	13.000000	13.880269
15.200000	14.000000	14.493038
15.300000	13.000000	14.236992
15.400000	15.000000	16.515186
15.500000	15.000000	15.627535
15.600000	16.000000	17.175106
15.700000	15.000000	15.906075
15.800000	14.000000	15.456573
15.900000	15.000000	15.715710
16.000000	16.000000	15.005758
16.100000	15.000000	15.528971
16.200000	15.000000	14.945489
16.300000	15.000000	15.307422
16.400000	17.000000	18.465912
16.500000	21.000000	20.981016
16.600000	19.000000	19.743753
16.700000	22.000000	22.360554
16.800000	21.000000	22.065750
16.900000	18.000000	18.316860
17.000000	16.000000	15.929093
17.100000	16.000000	16.202274
17.200000	18.000000	17.894663
17.300000	20.000000	20.347507
17.400000	24.000000	23.520718
17.500000	20.000000	20.926830
17.600000	19.000000	19.036995
17.700000	18.000000	17.747271
17.800000	16.000000	17.413853
17.900000	17.000000	18.145914
18.000000	16.000000	16.419678
18.100000	17.000000	17.647863
18.200000	19.000000	19.987690
18.300000	16.000000	15.746851
18.400000	14.000000	15.305383
18.500000	15.000000	16.922733
18.600000	14.000000	14.962635
18.700000	16.000000	16.333078
18.800000	15.000000	15.285681
18.900000	18.000000	19.011906
19.000000	19.000000	19.930826
19.100000	21.000000	21.130219
19.200000	23.000000	22.742516
19.300000	17.000000	18.751450
19.400000	19.000000	20.376537
19.500000	19.000000	19.811806
19.600000	18.000000	19.154526
19.700000	20.000000	20.852661
19.800000	17.000000	18.118490
19.900000	14.000000	15.892361
20.000000	15.000000	15.796575
20.100000	13.000000	14.345118
20.200000	14.000000	16.323723
20.300000	15.000000	14.406750
20.400000	16.000000	15.979489
20.500000	16.000000	18.536839
20.600000	19.000000	19.298309
20.700000	17.000000	17.115475
20.800000	19.000000	19.476971
20.900000	19.000000	19.363432
21.000000	19.000000	20.049946
21.100000	21.000000	20.404610
21.200000	18.000000	19.031105
21.300000	16.000000	18.412655
21.400000	15.000000	16.423729
21.500000	16.000000	17.143509
21.600000	17.000000	17.947285
21.700000	17.000000	17.985451
21.800000	15.000000	18.173370
21.900000	15.000000	15.373621
22.000000	15.000000	15.838423
22.100000	13.000000	13.363709
22.200000	13.000000	14.981476
22.300000	18.000000	17.419046
22.400000	17.000000	17.518394
22.500000	19.000000	19.240768
22.600000	21.000000	22.720110
22.700000	19.000000	20.392536
22.800000	21.000000	20.232857
22.900000	16.000000	17.324413
23.000000	16.000000	17.482895
23.100000	17.000000	17.956163
23.200000	17.000000	17.401051
23.300000	18.000000	17.691219
23.400000	16.000000	17.312138
23.500000	12.000000	13.847328
23.600000	12.000000	12.992427
23.700000	14.000000	14.862326
23.800000	12.000000	13.683048
23.900000	13.000000	12.882101
24.000000	12.000000	12.452275
24.100000	8.000000	9.949413
24.200000	11.000000	11.808179
24.300000	11.000000	10.211086
24.400000	7.000000	7.614686
24.500000	11.000000	10.672964
24.600000	8.000000	9.617920
24.700000	12.000000	13.104829
24.800000	12.000000	13.668787
24.900000	12.000000	12.222655
25.000000	12.000000	13.467436
25.100000	13.000000	13.539398
25.200000	14.000000	14.921863
25.300000	11.000000	12.484143
25.400000	10.000000	10.280425
25.500000	7.000000	7.934338
25.600000	11.000000	11.729012
25.700000	10.000000	9.500973
25.800000	8.000000	8.146959
25.900000	7.000000	7.530547
26.000000	8.000000	9.844482
26.100000	10.000000	10.658723
26.200000	7.000000	8.022100
26.300000	8.000000	9.100556
26.400000	10.000000	10.319658
26.500000	9.000000	9.677311
26.600000	10.000000	10.188494
26.700000	7.000000	8.471484
26.800000	7.000000	7.339706
26.900000	7.000000	7.452691
27.000000	13.000000	13.178734
27.100000	7.000000	9.216360
27.200000	8.000000	9.164387
27.300000	12.000000	12.493975
27.400000	15.000000	14.431313
27.500000	12.000000	12.237164
27.600000	13.000000	14.434820
27.700000	14.000000	13.856700
27.800000	11.000000	11.934692
27.900000	15.000000	13.686647
28.000000	11.000000	11.685698
28.100000	9.000000	9.788260
28.200000	13.000000	12.676033
28.300000	11.000000	11.163836
28.400000	11.000000	11.501823
28.500000	13.000000	13.416133
28.600000	15.000000	15.072243
28.700000	13.000000	13.130136
28.800000	14.000000	13.875387
28.900000	15.000000	15.754189
29.000000	14.000000	15.325231
29.100000	17.000000	17.148373
29.200000	15.000000	14.983212
29.300000	15.000000	14.608252
29.400000	17.000000	17.674759
29.500000	17.000000	17.911642
29.600000	17.000000	17.853874
29.700000	19.000000	19.721664
29.800000	16.000000	18.291351
29.900000	18.000000	18.334583
30.000000	14.000000	14.836777
30.100000	16.000000	15.845879
30.200000	13.000000	13.842966
30.300000	12.000000	11.548496
30.400000	9.000000	10.731295
30.500000	10.000000	11.098239
30.600000	13.000000	13.094933
30.700000	13.000000	13.175915
30.800000	11.000000	13.151052
30.900000	10.000000	11.241075
31.000000	14.000000	14.567868
31.100000	14.000000	16.574389
31.200000	18.000000	18.809597
31.300000	16.000000	16.751678
31.400000	19.000000	18.572876
31.500000	18.000000	18.229509
31.600000	18.000000	16.810822
31.700000	16.000000	16.603859
31.800000	13.000000	14.391495
31.900000	14.000000	14.712912
32.000000	13.000000	13.175562
32.100000	12.000000	13.638525
32.200000	13.000000	12.728238
32.300000	12.000000	12.380842
32.400000	15.000000	15.519558
32.500000	14.000000	15.540184
32.600000	17.000000	16.330429
32.700000	16.000000	15.994823
32.800000	16.000000	16.441891
32.900000	18.000000	17.707529
33.000000	17.000000	17.144630
33.100000	19.000000	19.120205
33.200000	15.000000	15.004360
33.300000	14.000000	14.713173
33.400000	15.000000	15.349865
33.500000	14.000000	13.867431
33.600000	13.000000	12.826841
33.700000	14.000000	14.677017
33.800000	14.000000	13.918078
33.900000	12.000000	13.231330
34.000000	12.000000	11.699723
34.100000	13.000000	14.290712
34.200000	14.000000	15.198595
34.300000	13.000000	14.042420
34.400000	16.000000	16.071903
34.500000	16.000000	16.375000
34.600000	18.000000	18.171320
34.700000	17.000000	18.038126
34.800000	18.000000	18.426634
34.900000	17.000000	17.425701
35.000000	19.000000	18.222090
35.100000	16.000000	15.693818
35.200000	13.000000	15.108978
35.300000	17.000000	17.221539
35.400000	16.000000	17.863722
35.500000	17.000000	17.936954
35.600000	17.000000	17.320354
35.700000	14.000000	14.701604
35.800000	11.000000	12.984911
35.900000	14.000000	15.055801
36.000000	13.000000	12.980848
36.100000	12.000000	13.522171
36.200000	13.000000	14.263264
36.300000	15.000000	16.607481
36.400000	17.000000	17.494160
36.500000	12.000000	13.420177
36.600000	13.000000	13.681978
36.700000	15.000000	14.865645
36.800000	12.000000	12.896544
36.900000	11.000000	11.926070
37.000000	13.000000	14.412657
37.100000	13.000000	14.211349
37.200000	12.000000	12.461807
37.300000	14.000000	15.461208
37.400000	12.000000	13.398347
37.500000	11.000000	12.501784
37.600000	13.000000	14.795376
37.700000	14.000000	15.316234
37.800000	16.000000	16.696821
37.900000	15.000000	15.747163
38.000000	16.000000	16.438784
38.100000	14.000000	15.055916
38.200000	15.000000	15.359688
38.300000	15.000000	14.880903
38.400000	13.000000	14.039524
38.500000	13.000000	14.030613
38.600000	12.000000	13.638391
38.700000	11.000000	12.952753
38.800000	15.000000	15.498844
38.900000	13.000000	14.140890
39.000000	17.000000	16.410833
39.100000	17.000000	18.192556
39.200000	15.000000	16.008560
39.300000	17.000000	17.454874
39.400000	14.000000	14.538726
39.500000	14.000000	14.855246
39.600000	16.000000	15.528305
39.700000	12.000000	12.851439
39.800000	13.000000	14.719948
39.900000	15.000000	15.444155
40.000000	12.000000	13.019995
40.100000	15.000000	15.604233
40.200000	16.000000	16.765926
40.300000	14.000000	15.593809
40.400000	16.000000	17.054960
40.500000	19.000000	18.874756
40.600000	18.000000	17.986786
40.700000	16.000000	15.543083
40.800000	15.000000	17.002827
40.900000	18.000000	17.360889
41.000000	16.000000	16.734715
41.100000	12.000000	13.498515
41.200000	15.000000	15.977140
41.300000	12.000000	12.731651
41.400000	12.000000	11.389733
41.500000	12.000000	11.833174
41.600000	10.000000	10.695891
41.700000	13.000000	14.593189
41.800000	11.000000	12.610153
41.900000	12.000000	11.833738
42.000000	12.000000	11.338709
42.100000	11.000000	11.781101
42.200000	12.000000	11.962080
42.300000	14.000000	14.262897
42.400000	13.000000	13.058177
42.500000	16.000000	15.458593
42.600000	17.000000	17.093704
42.700000	18.000000	18.878696
42.800000	18.000000	18.763077
42.900000	19.000000	20.026691
43.000000	20.000000	19.685062
43.100000	14.000000	15.306149
43.200000	12.000000	13.784505
43.300000	13.000000	14.002323
43.400000	12.000000	12.959707
43.500000	14.000000	14.331316
43.600000	14.000000	14.058582
43.700000	13.000000	16.257210
43.800000	16.000000	15.559258
43.900000	16.000000	16.234783
44.000000	19.000000	18.393959
44.100000	15.000000	15.335159
44.200000	16.000000	14.664396
44.300000	13.000000	14.294447
44.400000	11.000000	12.157707
44.500000	11.000000	11.453140
44.600000	13.000000	13.256689
44.700000	17.000000	15.407540
44.800000	9.000000	10.741525
44.900000	14.000000	14.352407
45.000000	15.000000	15.106018
45.100000	15.000000	14.448760
45.200000	14.000000	14.446714
45.300000	15.000000	15.647030
45.400000	13.000000	14.681806
45.500000	14.000000	14.291093
45.600000	13.000000	13.641040
45.700000	16.000000	16.356712
45.800000	20.000000	19.352753
45.900000	17.000000	17.154129
46.000000	14.000000	14.636982
46.100000	13.000000	14.222710
46.200000	12.000000	12.999825
46.300000	15.000000	15.687326
46.400000	12.000000	13.082623
46.500000	15.000000	14.968544
46.600000	17.000000	17.203091
46.700000	17.000000	16.458782
46.800000	12.000000	13.143106
46.900000	11.000000	11.475625
47.000000	13.000000	13.814318
47.100000	12.000000	12.133166
47.200000	10.000000	10.705137
47.300000	9.000000	9.136459
47.400000	10.000000	10.232412
47.500000	11.000000	12.663687
47.600000	16.000000	16.827156
47.700000	12.000000	12.365121
47.800000	13.000000	13.781328
47.900000	15.000000	14.886486
48.000000	16.000000	16.996315
48.100000	16.000000	16.074501
48.200000	15.000000	15.555280
48.300000	14.000000	13.974861
48.400000	15.000000	15.633456
48.500000	15.000000	15.108019
48.600000	17.000000	17.919092
48.700000	16.000000	16.348299
48.800000	20.000000	20.096283
48.900000	16.000000	17.333775
49.000000	17.000000	16.888947
49.100000	18.000000	18.844912
49.200000	17.000000	17.220730
49.300000	16.000000	17.293734
49.400000	16.000000	17.062981
49.500000	16.000000	16.297634
49.600000	15.000000	16.130379
49.700000	18.000000	17.341406
49.800000	12.000000	13.299290
49.900000	12.000000	13.283284
50.000000	12.000000	13.344771
50.100000	16.000000	15.902308
50.200000	15.000000	15.120237
50.300000	13.000000	13.448387
50.400000	15.000000	15.551165
50.500000	16.000000	17.063103
50.600000	16.000000	16.871647
50.700000	15.000000	15.741599
50.800000	14.000000	15.910081
50.900000	17.000000	18.335932
51.000000	15.000000	14.421083
51.100000	13.000000	13.895651
51.200000	18.000000	17.033037
51.300000	19.000000	19.398798
51.400000	15.000000	15.771393
51.500000	14.000000	14.196363
51.600000	15.000000	16.123627
51.700000	16.000000	17.066120
51.800000	15.000000	16.784851
51.900000	17.000000	18.621101
52.000000	18.000000	18.276190
52.100000	16.000000	15.614022
52.200000	11.000000	11.898912
52.300000	10.000000	10.463295
52.400000	14.000000	13.018267
52.500000	9.000000	9.739004
52.600000	12.000000	11.412097
52.700000	10.000000	10.770811
52.800000	10.000000	10.299513
52.900000	14.000000	14.468423
53.000000	15.000000	16.311726
53.100000	16.000000	17.554520
53.200000	18.000000	18.079018
53.300000	17.000000	18.219215
53.400000	15.000000	15.843409
53.500000	13.000000	13.709232
53.600000	11.000000	12.925474
53.700000	13.000000	12.505271
53.800000	13.000000	13.659291
53.900000	14.000000	14.757801
54.000000	16.000000	15.750320
54.100000	15.000000	15.593477
54.200000	17.000000	16.409897
54.300000	12.000000	12.704115
54.400000	10.000000	10.272674
54.500000	11.000000	12.210558
54.600000	11.000000	12.425581
54.700000	13.000000	14.129827
54.800000	16.000000	15.013307
54.900000	14.000000	14.345339
55.000000	10.000000	10.810453
55.100000	10.000000	10.946333
55.200000	11.000000	12.093721
55.300000	10.000000	11.024397
55.400000	10.000000	11.085373
55.500000	13.000000	14.112365
55.600000	8.000000	9.055977
55.700000	12.000000	11.948038
55.800000	11.000000	12.186517
55.900000	13.000000	12.854941
56.000000	15.000000	14.532150
56.100000	16.000000	17.441790
56.200000	15.000000	15.401155
56.300000	17.000000	17.664532
56.400000	17.000000	18.191250
56.500000	16.000000	17.742540
56.600000	13.000000	15.588164
56.700000	13.000000	13.573389
56.800000	10.000000	12.062967
56.900000	15.000000	15.573011
57.000000	13.000000	12.561599
57.100000	12.000000	12.773754
57.200000	14.000000	13.562563
57.300000	13.000000	12.538605
57.400000	9.000000	11.973933
57.500000	11.000000	11.409130
57.600000	11.000000	11.830954
57.700000	11.000000	11.994480
57.800000	10.000000	10.920341
57.900000	13.000000	14.151857
58.000000	12.000000	12.598825
58.100000	14.000000	14.731457
58.200000	10.000000	11.259333
58.300000	9.000000	9.454105
58.400000	11.000000	11.676111
58.500000	13.000000	13.603395
58.600000	16.000000	16.693661
58.700000	17.000000	17.167027
58.800000	17.000000	17.677557
58.900000	13.000000	14.109079
59.000000	12.000000	11.845986
59.100000	14.000000	15.415049
59.200000	15.000000	16.562473
59.300000	13.000000	14.500622
59.400000	14.000000	15.379759
59.500000	15.000000	15.207903
59.600000	15.000000	15.865084
59.700000	12.000000	12.455414
59.800000	16.000000	16.065432
59.900000	14.000000	15.336042
60.000000	15.000000	16.256779
60.100000	18.000000	20.219025
60.200000	16.000000	17.615385
60.300000	16.000000	15.995067
60.400000	13.000000	14.667261
60.500000	15.000000	14.807932
60.600000	13.000000	16.368797
60.700000	15.000000	16.676754
60.800000	15.000000	15.483528
60.900000	16.000000	16.917133
61.000000	16.000000	15.689942
61.100000	13.000000	14.307868
61.200000	16.000000	15.762466
61.300000	16.000000	16.384468
61.400000	13.000000	14.915325
61.500000	11.000000	12.356424
61.600000	12.000000	12.990807
61.700000	12.000000	13.298584
61.800000	12.000000	12.010633
61.900000	13.000000	15.373917
62.000000	15.000000	16.296566
62.100000	14.000000	14.943475
62.200000	16.000000	17.419460
62.300000	13.000000	14.389724
62.400000	12.000000	12.316388
62.500000	14.000000	14.082399
62.600000	13.000000	12.891110
62.700000	9.000000	10.727526
62.800000	11.000000	11.093766
62.900000	9.000000	9.191894
63.000000	14.000000	13.520938
63.100000	16.000000	16.061159
63.200000	16.000000	17.445198
63.300000	13.000000	15.253137
63.400000	12.000000	12.935762
63.500000	13.000000	14.125100
63.600000	13.000000	13.465440
63.700000	13.000000	14.734774
63.800000	12.000000	12.100256
63.900000	13.000000	13.124056
64.000000	11.000000	12.100217
64.100000	12.000000	12.528647
64.200000	13.000000	12.529664
64.300000	14.000000	14.800924
64.400000	15.000000	14.383368
64.500000	15.000000	14.926543
64.600000	14.000000	15.299073
64.700000	12.000000	12.093070
64.800000	13.000000	13.853225
64.900000	15.000000	16.699631
65.000000	17.000000	16.598957
65.100000	13.000000	13.879648
65.200000	13.000000	13.421358
65.300000	12.000000	13.834063
65.400000	13.000000	14.215703
65.500000	12.000000	12.417473
65.600000	13.000000	13.223312
65.700000	12.000000	12.782632
65.800000	13.000000	13.546197
65.900000	12.000000	12.975428
66.000000	11.000000	12.332865
66.100000	10.000000	10.767168
66.200000	12.000000	12.872906
66.300000	10.000000	10.774519
